"# Channel 1"
"# Trace 1"
Frequency, Formatted Data, Formatted Data
+2.00000000000E+004, +1.43731804181E+002, +0.00000000000E+000
+2.00075000000E+004, +1.43793615597E+002, +0.00000000000E+000
+2.00150000000E+004, +1.43854939866E+002, +0.00000000000E+000
+2.00225000000E+004, +1.43919763940E+002, +0.00000000000E+000
+2.00300000000E+004, +1.43966925500E+002, +0.00000000000E+000
+2.00375000000E+004, +1.44029485140E+002, +0.00000000000E+000
+2.00450000000E+004, +1.44094030649E+002, +0.00000000000E+000
+2.00525000000E+004, +1.44154590966E+002, +0.00000000000E+000
+2.00600000000E+004, +1.44212048930E+002, +0.00000000000E+000
+2.00675000000E+004, +1.44283520557E+002, +0.00000000000E+000
+2.00750000000E+004, +1.44338526228E+002, +0.00000000000E+000
+2.00825000000E+004, +1.44403273744E+002, +0.00000000000E+000
+2.00900000000E+004, +1.44459924352E+002, +0.00000000000E+000
+2.00975000000E+004, +1.44522046505E+002, +0.00000000000E+000
+2.01050000000E+004, +1.44581857257E+002, +0.00000000000E+000
+2.01125000000E+004, +1.44632017640E+002, +0.00000000000E+000
+2.01200000000E+004, +1.44691756665E+002, +0.00000000000E+000
+2.01275000000E+004, +1.44763273696E+002, +0.00000000000E+000
+2.01350000000E+004, +1.44822875100E+002, +0.00000000000E+000
+2.01425000000E+004, +1.44887785668E+002, +0.00000000000E+000
+2.01500000000E+004, +1.44934279365E+002, +0.00000000000E+000
+2.01575000000E+004, +1.45004207490E+002, +0.00000000000E+000
+2.01650000000E+004, +1.45068761090E+002, +0.00000000000E+000
+2.01725000000E+004, +1.45123864586E+002, +0.00000000000E+000
+2.01800000000E+004, +1.45194160293E+002, +0.00000000000E+000
+2.01875000000E+004, +1.45257135397E+002, +0.00000000000E+000
+2.01950000000E+004, +1.45304457993E+002, +0.00000000000E+000
+2.02025000000E+004, +1.45371193804E+002, +0.00000000000E+000
+2.02100000000E+004, +1.45430375382E+002, +0.00000000000E+000
+2.02175000000E+004, +1.45481100890E+002, +0.00000000000E+000
+2.02250000000E+004, +1.45541262987E+002, +0.00000000000E+000
+2.02325000000E+004, +1.45616815954E+002, +0.00000000000E+000
+2.02400000000E+004, +1.45665321920E+002, +0.00000000000E+000
+2.02475000000E+004, +1.45738887871E+002, +0.00000000000E+000
+2.02550000000E+004, +1.45800670924E+002, +0.00000000000E+000
+2.02625000000E+004, +1.45857433658E+002, +0.00000000000E+000
+2.02700000000E+004, +1.45908580209E+002, +0.00000000000E+000
+2.02775000000E+004, +1.45967234346E+002, +0.00000000000E+000
+2.02850000000E+004, +1.46044180564E+002, +0.00000000000E+000
+2.02925000000E+004, +1.46091240718E+002, +0.00000000000E+000
+2.03000000000E+004, +1.46157719892E+002, +0.00000000000E+000
+2.03075000000E+004, +1.46216509256E+002, +0.00000000000E+000
+2.03150000000E+004, +1.46285985426E+002, +0.00000000000E+000
+2.03225000000E+004, +1.46336122553E+002, +0.00000000000E+000
+2.03300000000E+004, +1.46397277953E+002, +0.00000000000E+000
+2.03375000000E+004, +1.46459544362E+002, +0.00000000000E+000
+2.03450000000E+004, +1.46527220837E+002, +0.00000000000E+000
+2.03525000000E+004, +1.46581124978E+002, +0.00000000000E+000
+2.03600000000E+004, +1.46645388724E+002, +0.00000000000E+000
+2.03675000000E+004, +1.46705495802E+002, +0.00000000000E+000
+2.03750000000E+004, +1.46770176136E+002, +0.00000000000E+000
+2.03825000000E+004, +1.46823696471E+002, +0.00000000000E+000
+2.03900000000E+004, +1.46896625270E+002, +0.00000000000E+000
+2.03975000000E+004, +1.46947534212E+002, +0.00000000000E+000
+2.04050000000E+004, +1.47016988613E+002, +0.00000000000E+000
+2.04125000000E+004, +1.47082646996E+002, +0.00000000000E+000
+2.04200000000E+004, +1.47134543633E+002, +0.00000000000E+000
+2.04275000000E+004, +1.47195655875E+002, +0.00000000000E+000
+2.04350000000E+004, +1.47247232219E+002, +0.00000000000E+000
+2.04425000000E+004, +1.47316249314E+002, +0.00000000000E+000
+2.04500000000E+004, +1.47375317156E+002, +0.00000000000E+000
+2.04575000000E+004, +1.47439449337E+002, +0.00000000000E+000
+2.04650000000E+004, +1.47494816704E+002, +0.00000000000E+000
+2.04725000000E+004, +1.47577680029E+002, +0.00000000000E+000
+2.04800000000E+004, +1.47618638121E+002, +0.00000000000E+000
+2.04875000000E+004, +1.47692326164E+002, +0.00000000000E+000
+2.04950000000E+004, +1.47752865918E+002, +0.00000000000E+000
+2.05025000000E+004, +1.47804410527E+002, +0.00000000000E+000
+2.05100000000E+004, +1.47873175902E+002, +0.00000000000E+000
+2.05175000000E+004, +1.47922521828E+002, +0.00000000000E+000
+2.05250000000E+004, +1.47995797454E+002, +0.00000000000E+000
+2.05325000000E+004, +1.48058503015E+002, +0.00000000000E+000
+2.05400000000E+004, +1.48118068531E+002, +0.00000000000E+000
+2.05475000000E+004, +1.48181036505E+002, +0.00000000000E+000
+2.05550000000E+004, +1.48240826429E+002, +0.00000000000E+000
+2.05625000000E+004, +1.48295057167E+002, +0.00000000000E+000
+2.05700000000E+004, +1.48359245500E+002, +0.00000000000E+000
+2.05775000000E+004, +1.48436185477E+002, +0.00000000000E+000
+2.05850000000E+004, +1.48484227722E+002, +0.00000000000E+000
+2.05925000000E+004, +1.48546263947E+002, +0.00000000000E+000
+2.06000000000E+004, +1.48613868978E+002, +0.00000000000E+000
+2.06075000000E+004, +1.48666835491E+002, +0.00000000000E+000
+2.06150000000E+004, +1.48728785969E+002, +0.00000000000E+000
+2.06225000000E+004, +1.48792114661E+002, +0.00000000000E+000
+2.06300000000E+004, +1.48851095435E+002, +0.00000000000E+000
+2.06375000000E+004, +1.48918274086E+002, +0.00000000000E+000
+2.06450000000E+004, +1.48976196308E+002, +0.00000000000E+000
+2.06525000000E+004, +1.49034765914E+002, +0.00000000000E+000
+2.06600000000E+004, +1.49103213129E+002, +0.00000000000E+000
+2.06675000000E+004, +1.49165972582E+002, +0.00000000000E+000
+2.06750000000E+004, +1.49215783532E+002, +0.00000000000E+000
+2.06825000000E+004, +1.49293922987E+002, +0.00000000000E+000
+2.06900000000E+004, +1.49356019124E+002, +0.00000000000E+000
+2.06975000000E+004, +1.49401679171E+002, +0.00000000000E+000
+2.07050000000E+004, +1.49470449746E+002, +0.00000000000E+000
+2.07125000000E+004, +1.49539205247E+002, +0.00000000000E+000
+2.07200000000E+004, +1.49609090874E+002, +0.00000000000E+000
+2.07275000000E+004, +1.49667225547E+002, +0.00000000000E+000
+2.07350000000E+004, +1.49726704665E+002, +0.00000000000E+000
+2.07425000000E+004, +1.49783280576E+002, +0.00000000000E+000
+2.07500000000E+004, +1.49853897320E+002, +0.00000000000E+000
+2.07575000000E+004, +1.49900697523E+002, +0.00000000000E+000
+2.07650000000E+004, +1.49970731963E+002, +0.00000000000E+000
+2.07725000000E+004, +1.50026295885E+002, +0.00000000000E+000
+2.07800000000E+004, +1.50093355697E+002, +0.00000000000E+000
+2.07875000000E+004, +1.50162292056E+002, +0.00000000000E+000
+2.07950000000E+004, +1.50228021814E+002, +0.00000000000E+000
+2.08025000000E+004, +1.50281120567E+002, +0.00000000000E+000
+2.08100000000E+004, +1.50334605884E+002, +0.00000000000E+000
+2.08175000000E+004, +1.50414816815E+002, +0.00000000000E+000
+2.08250000000E+004, +1.50480229358E+002, +0.00000000000E+000
+2.08325000000E+004, +1.50534348650E+002, +0.00000000000E+000
+2.08400000000E+004, +1.50600779557E+002, +0.00000000000E+000
+2.08475000000E+004, +1.50664004565E+002, +0.00000000000E+000
+2.08550000000E+004, +1.50729145375E+002, +0.00000000000E+000
+2.08625000000E+004, +1.50796244941E+002, +0.00000000000E+000
+2.08700000000E+004, +1.50844833076E+002, +0.00000000000E+000
+2.08775000000E+004, +1.50910517724E+002, +0.00000000000E+000
+2.08850000000E+004, +1.50968394640E+002, +0.00000000000E+000
+2.08925000000E+004, +1.51041660990E+002, +0.00000000000E+000
+2.09000000000E+004, +1.51097147473E+002, +0.00000000000E+000
+2.09075000000E+004, +1.51162562164E+002, +0.00000000000E+000
+2.09150000000E+004, +1.51216177456E+002, +0.00000000000E+000
+2.09225000000E+004, +1.51293645404E+002, +0.00000000000E+000
+2.09300000000E+004, +1.51352215229E+002, +0.00000000000E+000
+2.09375000000E+004, +1.51417012056E+002, +0.00000000000E+000
+2.09450000000E+004, +1.51480663643E+002, +0.00000000000E+000
+2.09525000000E+004, +1.51528853147E+002, +0.00000000000E+000
+2.09600000000E+004, +1.51610250642E+002, +0.00000000000E+000
+2.09675000000E+004, +1.51670420717E+002, +0.00000000000E+000
+2.09750000000E+004, +1.51730564772E+002, +0.00000000000E+000
+2.09825000000E+004, +1.51777661921E+002, +0.00000000000E+000
+2.09900000000E+004, +1.51864741105E+002, +0.00000000000E+000
+2.09975000000E+004, +1.51926317185E+002, +0.00000000000E+000
+2.10050000000E+004, +1.51987909208E+002, +0.00000000000E+000
+2.10125000000E+004, +1.52043674499E+002, +0.00000000000E+000
+2.10200000000E+004, +1.52107432999E+002, +0.00000000000E+000
+2.10275000000E+004, +1.52171187369E+002, +0.00000000000E+000
+2.10350000000E+004, +1.52237483078E+002, +0.00000000000E+000
+2.10425000000E+004, +1.52308599365E+002, +0.00000000000E+000
+2.10500000000E+004, +1.52358242157E+002, +0.00000000000E+000
+2.10575000000E+004, +1.52439215221E+002, +0.00000000000E+000
+2.10650000000E+004, +1.52492010263E+002, +0.00000000000E+000
+2.10725000000E+004, +1.52554005960E+002, +0.00000000000E+000
+2.10800000000E+004, +1.52604899409E+002, +0.00000000000E+000
+2.10875000000E+004, +1.52682902399E+002, +0.00000000000E+000
+2.10950000000E+004, +1.52736099302E+002, +0.00000000000E+000
+2.11025000000E+004, +1.52803316497E+002, +0.00000000000E+000
+2.11100000000E+004, +1.52875229938E+002, +0.00000000000E+000
+2.11175000000E+004, +1.52928015959E+002, +0.00000000000E+000
+2.11250000000E+004, +1.52993668343E+002, +0.00000000000E+000
+2.11325000000E+004, +1.53062313622E+002, +0.00000000000E+000
+2.11400000000E+004, +1.53114403745E+002, +0.00000000000E+000
+2.11475000000E+004, +1.53179609189E+002, +0.00000000000E+000
+2.11550000000E+004, +1.53255202184E+002, +0.00000000000E+000
+2.11625000000E+004, +1.53311285725E+002, +0.00000000000E+000
+2.11700000000E+004, +1.53376253553E+002, +0.00000000000E+000
+2.11775000000E+004, +1.53452879101E+002, +0.00000000000E+000
+2.11850000000E+004, +1.53498263876E+002, +0.00000000000E+000
+2.11925000000E+004, +1.53570863797E+002, +0.00000000000E+000
+2.12000000000E+004, +1.53632264365E+002, +0.00000000000E+000
+2.12075000000E+004, +1.53704000432E+002, +0.00000000000E+000
+2.12150000000E+004, +1.53761900357E+002, +0.00000000000E+000
+2.12225000000E+004, +1.53825302477E+002, +0.00000000000E+000
+2.12300000000E+004, +1.53888473922E+002, +0.00000000000E+000
+2.12375000000E+004, +1.53947367055E+002, +0.00000000000E+000
+2.12450000000E+004, +1.54030119392E+002, +0.00000000000E+000
+2.12525000000E+004, +1.54091050284E+002, +0.00000000000E+000
+2.12600000000E+004, +1.54143899963E+002, +0.00000000000E+000
+2.12675000000E+004, +1.54219992234E+002, +0.00000000000E+000
+2.12750000000E+004, +1.54265627194E+002, +0.00000000000E+000
+2.12825000000E+004, +1.54340068895E+002, +0.00000000000E+000
+2.12900000000E+004, +1.54420366839E+002, +0.00000000000E+000
+2.12975000000E+004, +1.54473499057E+002, +0.00000000000E+000
+2.13050000000E+004, +1.54538027206E+002, +0.00000000000E+000
+2.13125000000E+004, +1.54594518598E+002, +0.00000000000E+000
+2.13200000000E+004, +1.54669495852E+002, +0.00000000000E+000
+2.13275000000E+004, +1.54736244865E+002, +0.00000000000E+000
+2.13350000000E+004, +1.54794111918E+002, +0.00000000000E+000
+2.13425000000E+004, +1.54867248412E+002, +0.00000000000E+000
+2.13500000000E+004, +1.54911931604E+002, +0.00000000000E+000
+2.13575000000E+004, +1.54994370207E+002, +0.00000000000E+000
+2.13650000000E+004, +1.55056270190E+002, +0.00000000000E+000
+2.13725000000E+004, +1.55119826610E+002, +0.00000000000E+000
+2.13800000000E+004, +1.55187741725E+002, +0.00000000000E+000
+2.13875000000E+004, +1.55241320872E+002, +0.00000000000E+000
+2.13950000000E+004, +1.55322316021E+002, +0.00000000000E+000
+2.14025000000E+004, +1.55378733260E+002, +0.00000000000E+000
+2.14100000000E+004, +1.55448266841E+002, +0.00000000000E+000
+2.14175000000E+004, +1.55502580033E+002, +0.00000000000E+000
+2.14250000000E+004, +1.55589481595E+002, +0.00000000000E+000
+2.14325000000E+004, +1.55643138538E+002, +0.00000000000E+000
+2.14400000000E+004, +1.55711304804E+002, +0.00000000000E+000
+2.14475000000E+004, +1.55760260509E+002, +0.00000000000E+000
+2.14550000000E+004, +1.55845889463E+002, +0.00000000000E+000
+2.14625000000E+004, +1.55903779669E+002, +0.00000000000E+000
+2.14700000000E+004, +1.55980983903E+002, +0.00000000000E+000
+2.14775000000E+004, +1.56033752182E+002, +0.00000000000E+000
+2.14850000000E+004, +1.56097276394E+002, +0.00000000000E+000
+2.14925000000E+004, +1.56170901297E+002, +0.00000000000E+000
+2.15000000000E+004, +1.56217417033E+002, +0.00000000000E+000
+2.15075000000E+004, +1.56287909786E+002, +0.00000000000E+000
+2.15150000000E+004, +1.56368399028E+002, +0.00000000000E+000
+2.15225000000E+004, +1.56429099012E+002, +0.00000000000E+000
+2.15300000000E+004, +1.56492092690E+002, +0.00000000000E+000
+2.15375000000E+004, +1.56574582155E+002, +0.00000000000E+000
+2.15450000000E+004, +1.56629057731E+002, +0.00000000000E+000
+2.15525000000E+004, +1.56698196316E+002, +0.00000000000E+000
+2.15600000000E+004, +1.56764282436E+002, +0.00000000000E+000
+2.15675000000E+004, +1.56826828438E+002, +0.00000000000E+000
+2.15750000000E+004, +1.56895802721E+002, +0.00000000000E+000
+2.15825000000E+004, +1.56973353592E+002, +0.00000000000E+000
+2.15900000000E+004, +1.57038298799E+002, +0.00000000000E+000
+2.15975000000E+004, +1.57089899943E+002, +0.00000000000E+000
+2.16050000000E+004, +1.57160434227E+002, +0.00000000000E+000
+2.16125000000E+004, +1.57224337966E+002, +0.00000000000E+000
+2.16200000000E+004, +1.57291630992E+002, +0.00000000000E+000
+2.16275000000E+004, +1.57363891968E+002, +0.00000000000E+000
+2.16350000000E+004, +1.57425893960E+002, +0.00000000000E+000
+2.16425000000E+004, +1.57494204721E+002, +0.00000000000E+000
+2.16500000000E+004, +1.57573334983E+002, +0.00000000000E+000
+2.16575000000E+004, +1.57632586336E+002, +0.00000000000E+000
+2.16650000000E+004, +1.57700497438E+002, +0.00000000000E+000
+2.16725000000E+004, +1.57757449274E+002, +0.00000000000E+000
+2.16800000000E+004, +1.57830145071E+002, +0.00000000000E+000
+2.16875000000E+004, +1.57901671368E+002, +0.00000000000E+000
+2.16950000000E+004, +1.57972202676E+002, +0.00000000000E+000
+2.17025000000E+004, +1.58027330644E+002, +0.00000000000E+000
+2.17100000000E+004, +1.58099156172E+002, +0.00000000000E+000
+2.17175000000E+004, +1.58169522642E+002, +0.00000000000E+000
+2.17250000000E+004, +1.58246723296E+002, +0.00000000000E+000
+2.17325000000E+004, +1.58301689573E+002, +0.00000000000E+000
+2.17400000000E+004, +1.58374184059E+002, +0.00000000000E+000
+2.17475000000E+004, +1.58438742178E+002, +0.00000000000E+000
+2.17550000000E+004, +1.58501371766E+002, +0.00000000000E+000
+2.17625000000E+004, +1.58588048710E+002, +0.00000000000E+000
+2.17700000000E+004, +1.58633380587E+002, +0.00000000000E+000
+2.17775000000E+004, +1.58708364433E+002, +0.00000000000E+000
+2.17850000000E+004, +1.58783067724E+002, +0.00000000000E+000
+2.17925000000E+004, +1.58846828523E+002, +0.00000000000E+000
+2.18000000000E+004, +1.58927563616E+002, +0.00000000000E+000
+2.18075000000E+004, +1.58989575194E+002, +0.00000000000E+000
+2.18150000000E+004, +1.59066948964E+002, +0.00000000000E+000
+2.18225000000E+004, +1.59130795472E+002, +0.00000000000E+000
+2.18300000000E+004, +1.59195328457E+002, +0.00000000000E+000
+2.18375000000E+004, +1.59270940226E+002, +0.00000000000E+000
+2.18450000000E+004, +1.59332332417E+002, +0.00000000000E+000
+2.18525000000E+004, +1.59405207823E+002, +0.00000000000E+000
+2.18600000000E+004, +1.59482780616E+002, +0.00000000000E+000
+2.18675000000E+004, +1.59539676526E+002, +0.00000000000E+000
+2.18750000000E+004, +1.59630008280E+002, +0.00000000000E+000
+2.18825000000E+004, +1.59690771664E+002, +0.00000000000E+000
+2.18900000000E+004, +1.59753859941E+002, +0.00000000000E+000
+2.18975000000E+004, +1.59824733641E+002, +0.00000000000E+000
+2.19050000000E+004, +1.59894149044E+002, +0.00000000000E+000
+2.19125000000E+004, +1.59965541435E+002, +0.00000000000E+000
+2.19200000000E+004, +1.60042980383E+002, +0.00000000000E+000
+2.19275000000E+004, +1.60104993852E+002, +0.00000000000E+000
+2.19350000000E+004, +1.60187620956E+002, +0.00000000000E+000
+2.19425000000E+004, +1.60259474106E+002, +0.00000000000E+000
+2.19500000000E+004, +1.60320277877E+002, +0.00000000000E+000
+2.19575000000E+004, +1.60394612501E+002, +0.00000000000E+000
+2.19650000000E+004, +1.60473815986E+002, +0.00000000000E+000
+2.19725000000E+004, +1.60540986174E+002, +0.00000000000E+000
+2.19800000000E+004, +1.60623271771E+002, +0.00000000000E+000
+2.19875000000E+004, +1.60694267304E+002, +0.00000000000E+000
+2.19950000000E+004, +1.60754309260E+002, +0.00000000000E+000
+2.20025000000E+004, +1.60830267631E+002, +0.00000000000E+000
+2.20100000000E+004, +1.60907102439E+002, +0.00000000000E+000
+2.20175000000E+004, +1.60990203058E+002, +0.00000000000E+000
+2.20250000000E+004, +1.61047726131E+002, +0.00000000000E+000
+2.20325000000E+004, +1.61127178892E+002, +0.00000000000E+000
+2.20400000000E+004, +1.61220162646E+002, +0.00000000000E+000
+2.20475000000E+004, +1.61277583783E+002, +0.00000000000E+000
+2.20550000000E+004, +1.61365266493E+002, +0.00000000000E+000
+2.20625000000E+004, +1.61435819795E+002, +0.00000000000E+000
+2.20700000000E+004, +1.61510009777E+002, +0.00000000000E+000
+2.20775000000E+004, +1.61605416478E+002, +0.00000000000E+000
+2.20850000000E+004, +1.61683517724E+002, +0.00000000000E+000
+2.20925000000E+004, +1.61765546332E+002, +0.00000000000E+000
+2.21000000000E+004, +1.61856850061E+002, +0.00000000000E+000
+2.21075000000E+004, +1.61939411011E+002, +0.00000000000E+000
+2.21150000000E+004, +1.62035920005E+002, +0.00000000000E+000
+2.21225000000E+004, +1.62135943773E+002, +0.00000000000E+000
+2.21300000000E+004, +1.62242770603E+002, +0.00000000000E+000
+2.21375000000E+004, +1.62340622352E+002, +0.00000000000E+000
+2.21450000000E+004, +1.62446307379E+002, +0.00000000000E+000
+2.21525000000E+004, +1.62538610888E+002, +0.00000000000E+000
+2.21600000000E+004, +1.62616322793E+002, +0.00000000000E+000
+2.21675000000E+004, +1.62621425767E+002, +0.00000000000E+000
+2.21750000000E+004, +1.62517051046E+002, +0.00000000000E+000
+2.21825000000E+004, +1.62289721340E+002, +0.00000000000E+000
+2.21900000000E+004, +1.62065697844E+002, +0.00000000000E+000
+2.21975000000E+004, +1.62067663590E+002, +0.00000000000E+000
+2.22050000000E+004, +1.62299750530E+002, +0.00000000000E+000
+2.22125000000E+004, +1.62481825467E+002, +0.00000000000E+000
+2.22200000000E+004, +1.62571540664E+002, +0.00000000000E+000
+2.22275000000E+004, +1.62685245476E+002, +0.00000000000E+000
+2.22350000000E+004, +1.62778394596E+002, +0.00000000000E+000
+2.22425000000E+004, +1.62881371128E+002, +0.00000000000E+000
+2.22500000000E+004, +1.62966468997E+002, +0.00000000000E+000
+2.22575000000E+004, +1.63065189099E+002, +0.00000000000E+000
+2.22650000000E+004, +1.63133468083E+002, +0.00000000000E+000
+2.22725000000E+004, +1.63228409506E+002, +0.00000000000E+000
+2.22800000000E+004, +1.63322198297E+002, +0.00000000000E+000
+2.22875000000E+004, +1.63402182600E+002, +0.00000000000E+000
+2.22950000000E+004, +1.63472512480E+002, +0.00000000000E+000
+2.23025000000E+004, +1.63559134786E+002, +0.00000000000E+000
+2.23100000000E+004, +1.63637932551E+002, +0.00000000000E+000
+2.23175000000E+004, +1.63726814889E+002, +0.00000000000E+000
+2.23250000000E+004, +1.63797801921E+002, +0.00000000000E+000
+2.23325000000E+004, +1.63891636527E+002, +0.00000000000E+000
+2.23400000000E+004, +1.63972784980E+002, +0.00000000000E+000
+2.23475000000E+004, +1.64040752227E+002, +0.00000000000E+000
+2.23550000000E+004, +1.64127984226E+002, +0.00000000000E+000
+2.23625000000E+004, +1.64200862957E+002, +0.00000000000E+000
+2.23700000000E+004, +1.64283335342E+002, +0.00000000000E+000
+2.23775000000E+004, +1.64362017186E+002, +0.00000000000E+000
+2.23850000000E+004, +1.64439911002E+002, +0.00000000000E+000
+2.23925000000E+004, +1.64530794178E+002, +0.00000000000E+000
+2.24000000000E+004, +1.64601095414E+002, +0.00000000000E+000
