"# Channel 1"
"# Trace 2"
Frequency, Formatted Data, Formatted Data
+2.00000000000E+004, +8.33049231542E+001, +0.00000000000E+000
+2.00075000000E+004, +8.33209378269E+001, +0.00000000000E+000
+2.00150000000E+004, +8.33351929581E+001, +0.00000000000E+000
+2.00225000000E+004, +8.33424285405E+001, +0.00000000000E+000
+2.00300000000E+004, +8.33624808838E+001, +0.00000000000E+000
+2.00375000000E+004, +8.33704229687E+001, +0.00000000000E+000
+2.00450000000E+004, +8.33901064230E+001, +0.00000000000E+000
+2.00525000000E+004, +8.34017264110E+001, +0.00000000000E+000
+2.00600000000E+004, +8.34189074363E+001, +0.00000000000E+000
+2.00675000000E+004, +8.34272354792E+001, +0.00000000000E+000
+2.00750000000E+004, +8.34422927106E+001, +0.00000000000E+000
+2.00825000000E+004, +8.34604343346E+001, +0.00000000000E+000
+2.00900000000E+004, +8.34719852049E+001, +0.00000000000E+000
+2.00975000000E+004, +8.34865740751E+001, +0.00000000000E+000
+2.01050000000E+004, +8.34974912409E+001, +0.00000000000E+000
+2.01125000000E+004, +8.35122244781E+001, +0.00000000000E+000
+2.01200000000E+004, +8.35220739959E+001, +0.00000000000E+000
+2.01275000000E+004, +8.35378330256E+001, +0.00000000000E+000
+2.01350000000E+004, +8.35525199940E+001, +0.00000000000E+000
+2.01425000000E+004, +8.35577105656E+001, +0.00000000000E+000
+2.01500000000E+004, +8.35742864724E+001, +0.00000000000E+000
+2.01575000000E+004, +8.35838660009E+001, +0.00000000000E+000
+2.01650000000E+004, +8.35985375508E+001, +0.00000000000E+000
+2.01725000000E+004, +8.36107854767E+001, +0.00000000000E+000
+2.01800000000E+004, +8.36255574155E+001, +0.00000000000E+000
+2.01875000000E+004, +8.36388125111E+001, +0.00000000000E+000
+2.01950000000E+004, +8.36495636224E+001, +0.00000000000E+000
+2.02025000000E+004, +8.36619581741E+001, +0.00000000000E+000
+2.02100000000E+004, +8.36685368786E+001, +0.00000000000E+000
+2.02175000000E+004, +8.36883320989E+001, +0.00000000000E+000
+2.02250000000E+004, +8.36980269827E+001, +0.00000000000E+000
+2.02325000000E+004, +8.37110885134E+001, +0.00000000000E+000
+2.02400000000E+004, +8.37240001389E+001, +0.00000000000E+000
+2.02475000000E+004, +8.37338869653E+001, +0.00000000000E+000
+2.02550000000E+004, +8.37449409368E+001, +0.00000000000E+000
+2.02625000000E+004, +8.37574599701E+001, +0.00000000000E+000
+2.02700000000E+004, +8.37729180980E+001, +0.00000000000E+000
+2.02775000000E+004, +8.37828272787E+001, +0.00000000000E+000
+2.02850000000E+004, +8.37940949936E+001, +0.00000000000E+000
+2.02925000000E+004, +8.38039899876E+001, +0.00000000000E+000
+2.03000000000E+004, +8.38152550448E+001, +0.00000000000E+000
+2.03075000000E+004, +8.38321269091E+001, +0.00000000000E+000
+2.03150000000E+004, +8.38421416823E+001, +0.00000000000E+000
+2.03225000000E+004, +8.38598030951E+001, +0.00000000000E+000
+2.03300000000E+004, +8.38630153787E+001, +0.00000000000E+000
+2.03375000000E+004, +8.38792195337E+001, +0.00000000000E+000
+2.03450000000E+004, +8.38897822471E+001, +0.00000000000E+000
+2.03525000000E+004, +8.39010468757E+001, +0.00000000000E+000
+2.03600000000E+004, +8.39091473387E+001, +0.00000000000E+000
+2.03675000000E+004, +8.39252572861E+001, +0.00000000000E+000
+2.03750000000E+004, +8.39338040285E+001, +0.00000000000E+000
+2.03825000000E+004, +8.39484368320E+001, +0.00000000000E+000
+2.03900000000E+004, +8.39573632720E+001, +0.00000000000E+000
+2.03975000000E+004, +8.39671958705E+001, +0.00000000000E+000
+2.04050000000E+004, +8.39843905760E+001, +0.00000000000E+000
+2.04125000000E+004, +8.39897086505E+001, +0.00000000000E+000
+2.04200000000E+004, +8.40055202869E+001, +0.00000000000E+000
+2.04275000000E+004, +8.40158838867E+001, +0.00000000000E+000
+2.04350000000E+004, +8.40283267688E+001, +0.00000000000E+000
+2.04425000000E+004, +8.40373808112E+001, +0.00000000000E+000
+2.04500000000E+004, +8.40454343250E+001, +0.00000000000E+000
+2.04575000000E+004, +8.40632984628E+001, +0.00000000000E+000
+2.04650000000E+004, +8.40694582700E+001, +0.00000000000E+000
+2.04725000000E+004, +8.40765139917E+001, +0.00000000000E+000
+2.04800000000E+004, +8.40877714285E+001, +0.00000000000E+000
+2.04875000000E+004, +8.41027846896E+001, +0.00000000000E+000
+2.04950000000E+004, +8.41132332616E+001, +0.00000000000E+000
+2.05025000000E+004, +8.41256541889E+001, +0.00000000000E+000
+2.05100000000E+004, +8.41326182978E+001, +0.00000000000E+000
+2.05175000000E+004, +8.41486163387E+001, +0.00000000000E+000
+2.05250000000E+004, +8.41563798716E+001, +0.00000000000E+000
+2.05325000000E+004, +8.41651611332E+001, +0.00000000000E+000
+2.05400000000E+004, +8.41755626666E+001, +0.00000000000E+000
+2.05475000000E+004, +8.41847492763E+001, +0.00000000000E+000
+2.05550000000E+004, +8.41940661004E+001, +0.00000000000E+000
+2.05625000000E+004, +8.42076864779E+001, +0.00000000000E+000
+2.05700000000E+004, +8.42220512840E+001, +0.00000000000E+000
+2.05775000000E+004, +8.42279479857E+001, +0.00000000000E+000
+2.05850000000E+004, +8.42408548543E+001, +0.00000000000E+000
+2.05925000000E+004, +8.42458057013E+001, +0.00000000000E+000
+2.06000000000E+004, +8.42618781958E+001, +0.00000000000E+000
+2.06075000000E+004, +8.42742710724E+001, +0.00000000000E+000
+2.06150000000E+004, +8.42832173471E+001, +0.00000000000E+000
+2.06225000000E+004, +8.42890282034E+001, +0.00000000000E+000
+2.06300000000E+004, +8.42986594069E+001, +0.00000000000E+000
+2.06375000000E+004, +8.43107724181E+001, +0.00000000000E+000
+2.06450000000E+004, +8.43200639594E+001, +0.00000000000E+000
+2.06525000000E+004, +8.43347192782E+001, +0.00000000000E+000
+2.06600000000E+004, +8.43387210574E+001, +0.00000000000E+000
+2.06675000000E+004, +8.43512005830E+001, +0.00000000000E+000
+2.06750000000E+004, +8.43622432439E+001, +0.00000000000E+000
+2.06825000000E+004, +8.43704683089E+001, +0.00000000000E+000
+2.06900000000E+004, +8.43796511293E+001, +0.00000000000E+000
+2.06975000000E+004, +8.43939392423E+001, +0.00000000000E+000
+2.07050000000E+004, +8.43945496290E+001, +0.00000000000E+000
+2.07125000000E+004, +8.44066119622E+001, +0.00000000000E+000
+2.07200000000E+004, +8.44172599790E+001, +0.00000000000E+000
+2.07275000000E+004, +8.44272412523E+001, +0.00000000000E+000
+2.07350000000E+004, +8.44348656988E+001, +0.00000000000E+000
+2.07425000000E+004, +8.44497915413E+001, +0.00000000000E+000
+2.07500000000E+004, +8.44607995970E+001, +0.00000000000E+000
+2.07575000000E+004, +8.44632085473E+001, +0.00000000000E+000
+2.07650000000E+004, +8.44714132694E+001, +0.00000000000E+000
+2.07725000000E+004, +8.44868001881E+001, +0.00000000000E+000
+2.07800000000E+004, +8.44904816869E+001, +0.00000000000E+000
+2.07875000000E+004, +8.45002218147E+001, +0.00000000000E+000
+2.07950000000E+004, +8.45055524811E+001, +0.00000000000E+000
+2.08025000000E+004, +8.45201700723E+001, +0.00000000000E+000
+2.08100000000E+004, +8.45282136455E+001, +0.00000000000E+000
+2.08175000000E+004, +8.45415260043E+001, +0.00000000000E+000
+2.08250000000E+004, +8.45488641702E+001, +0.00000000000E+000
+2.08325000000E+004, +8.45555354708E+001, +0.00000000000E+000
+2.08400000000E+004, +8.45699332589E+001, +0.00000000000E+000
+2.08475000000E+004, +8.45774606141E+001, +0.00000000000E+000
+2.08550000000E+004, +8.45840070914E+001, +0.00000000000E+000
+2.08625000000E+004, +8.45932473037E+001, +0.00000000000E+000
+2.08700000000E+004, +8.46023355944E+001, +0.00000000000E+000
+2.08775000000E+004, +8.46084997754E+001, +0.00000000000E+000
+2.08850000000E+004, +8.46208258902E+001, +0.00000000000E+000
+2.08925000000E+004, +8.46269524900E+001, +0.00000000000E+000
+2.09000000000E+004, +8.46389965363E+001, +0.00000000000E+000
+2.09075000000E+004, +8.46481104532E+001, +0.00000000000E+000
+2.09150000000E+004, +8.46568638168E+001, +0.00000000000E+000
+2.09225000000E+004, +8.46633330914E+001, +0.00000000000E+000
+2.09300000000E+004, +8.46650770738E+001, +0.00000000000E+000
+2.09375000000E+004, +8.46825960201E+001, +0.00000000000E+000
+2.09450000000E+004, +8.46900018438E+001, +0.00000000000E+000
+2.09525000000E+004, +8.46966357673E+001, +0.00000000000E+000
+2.09600000000E+004, +8.47092404694E+001, +0.00000000000E+000
+2.09675000000E+004, +8.47120373605E+001, +0.00000000000E+000
+2.09750000000E+004, +8.47185066186E+001, +0.00000000000E+000
+2.09825000000E+004, +8.47351230089E+001, +0.00000000000E+000
+2.09900000000E+004, +8.47421259674E+001, +0.00000000000E+000
+2.09975000000E+004, +8.47484150173E+001, +0.00000000000E+000
+2.10050000000E+004, +8.47582250813E+001, +0.00000000000E+000
+2.10125000000E+004, +8.47632916588E+001, +0.00000000000E+000
+2.10200000000E+004, +8.47735480347E+001, +0.00000000000E+000
+2.10275000000E+004, +8.47839996474E+001, +0.00000000000E+000
+2.10350000000E+004, +8.47889812168E+001, +0.00000000000E+000
+2.10425000000E+004, +8.47999147838E+001, +0.00000000000E+000
+2.10500000000E+004, +8.48077519237E+001, +0.00000000000E+000
+2.10575000000E+004, +8.48147708985E+001, +0.00000000000E+000
+2.10650000000E+004, +8.48226803885E+001, +0.00000000000E+000
+2.10725000000E+004, +8.48275894759E+001, +0.00000000000E+000
+2.10800000000E+004, +8.48378937886E+001, +0.00000000000E+000
+2.10875000000E+004, +8.48413058659E+001, +0.00000000000E+000
+2.10950000000E+004, +8.48528687087E+001, +0.00000000000E+000
+2.11025000000E+004, +8.48594100894E+001, +0.00000000000E+000
+2.11100000000E+004, +8.48697446952E+001, +0.00000000000E+000
+2.11175000000E+004, +8.48788694146E+001, +0.00000000000E+000
+2.11250000000E+004, +8.48905781704E+001, +0.00000000000E+000
+2.11325000000E+004, +8.48963030055E+001, +0.00000000000E+000
+2.11400000000E+004, +8.48989715564E+001, +0.00000000000E+000
+2.11475000000E+004, +8.49093781032E+001, +0.00000000000E+000
+2.11550000000E+004, +8.49166609519E+001, +0.00000000000E+000
+2.11625000000E+004, +8.49269958813E+001, +0.00000000000E+000
+2.11700000000E+004, +8.49331766379E+001, +0.00000000000E+000
+2.11775000000E+004, +8.49417591282E+001, +0.00000000000E+000
+2.11850000000E+004, +8.49502904377E+001, +0.00000000000E+000
+2.11925000000E+004, +8.49613905726E+001, +0.00000000000E+000
+2.12000000000E+004, +8.49683360249E+001, +0.00000000000E+000
+2.12075000000E+004, +8.49687646792E+001, +0.00000000000E+000
+2.12150000000E+004, +8.49835925469E+001, +0.00000000000E+000
+2.12225000000E+004, +8.49886170175E+001, +0.00000000000E+000
+2.12300000000E+004, +8.49974982572E+001, +0.00000000000E+000
+2.12375000000E+004, +8.50090780699E+001, +0.00000000000E+000
+2.12450000000E+004, +8.50122765493E+001, +0.00000000000E+000
+2.12525000000E+004, +8.50255542529E+001, +0.00000000000E+000
+2.12600000000E+004, +8.50325916177E+001, +0.00000000000E+000
+2.12675000000E+004, +8.50263189019E+001, +0.00000000000E+000
+2.12750000000E+004, +8.50443095043E+001, +0.00000000000E+000
+2.12825000000E+004, +8.50498394075E+001, +0.00000000000E+000
+2.12900000000E+004, +8.50581181505E+001, +0.00000000000E+000
+2.12975000000E+004, +8.50621161414E+001, +0.00000000000E+000
+2.13050000000E+004, +8.50714634244E+001, +0.00000000000E+000
+2.13125000000E+004, +8.50789091339E+001, +0.00000000000E+000
+2.13200000000E+004, +8.50831971717E+001, +0.00000000000E+000
+2.13275000000E+004, +8.50918452442E+001, +0.00000000000E+000
+2.13350000000E+004, +8.51004033051E+001, +0.00000000000E+000
+2.13425000000E+004, +8.51163446476E+001, +0.00000000000E+000
+2.13500000000E+004, +8.51134312332E+001, +0.00000000000E+000
+2.13575000000E+004, +8.51207247730E+001, +0.00000000000E+000
+2.13650000000E+004, +8.51276764041E+001, +0.00000000000E+000
+2.13725000000E+004, +8.51370021399E+001, +0.00000000000E+000
+2.13800000000E+004, +8.51436253282E+001, +0.00000000000E+000
+2.13875000000E+004, +8.51479152772E+001, +0.00000000000E+000
+2.13950000000E+004, +8.51554449769E+001, +0.00000000000E+000
+2.14025000000E+004, +8.51597863475E+001, +0.00000000000E+000
+2.14100000000E+004, +8.51735164047E+001, +0.00000000000E+000
+2.14175000000E+004, +8.51774549325E+001, +0.00000000000E+000
+2.14250000000E+004, +8.51844980697E+001, +0.00000000000E+000
+2.14325000000E+004, +8.51938045862E+001, +0.00000000000E+000
+2.14400000000E+004, +8.51961950516E+001, +0.00000000000E+000
+2.14475000000E+004, +8.52086619621E+001, +0.00000000000E+000
+2.14550000000E+004, +8.52118202809E+001, +0.00000000000E+000
+2.14625000000E+004, +8.52252137735E+001, +0.00000000000E+000
+2.14700000000E+004, +8.52324713033E+001, +0.00000000000E+000
+2.14775000000E+004, +8.52337787618E+001, +0.00000000000E+000
+2.14850000000E+004, +8.52408170301E+001, +0.00000000000E+000
+2.14925000000E+004, +8.52484171650E+001, +0.00000000000E+000
+2.15000000000E+004, +8.52515541820E+001, +0.00000000000E+000
+2.15075000000E+004, +8.52605841283E+001, +0.00000000000E+000
+2.15150000000E+004, +8.52660562187E+001, +0.00000000000E+000
+2.15225000000E+004, +8.52737155291E+001, +0.00000000000E+000
+2.15300000000E+004, +8.52868944452E+001, +0.00000000000E+000
+2.15375000000E+004, +8.52889505360E+001, +0.00000000000E+000
+2.15450000000E+004, +8.52973256315E+001, +0.00000000000E+000
+2.15525000000E+004, +8.53030790117E+001, +0.00000000000E+000
+2.15600000000E+004, +8.53079732562E+001, +0.00000000000E+000
+2.15675000000E+004, +8.53175360671E+001, +0.00000000000E+000
+2.15750000000E+004, +8.53209365494E+001, +0.00000000000E+000
+2.15825000000E+004, +8.53302909324E+001, +0.00000000000E+000
+2.15900000000E+004, +8.53412690738E+001, +0.00000000000E+000
+2.15975000000E+004, +8.53438822475E+001, +0.00000000000E+000
+2.16050000000E+004, +8.53473849946E+001, +0.00000000000E+000
+2.16125000000E+004, +8.53564038456E+001, +0.00000000000E+000
+2.16200000000E+004, +8.53628096897E+001, +0.00000000000E+000
+2.16275000000E+004, +8.53682506625E+001, +0.00000000000E+000
+2.16350000000E+004, +8.53771713091E+001, +0.00000000000E+000
+2.16425000000E+004, +8.53746913439E+001, +0.00000000000E+000
+2.16500000000E+004, +8.53867437713E+001, +0.00000000000E+000
+2.16575000000E+004, +8.53890712218E+001, +0.00000000000E+000
+2.16650000000E+004, +8.53978975855E+001, +0.00000000000E+000
+2.16725000000E+004, +8.53993477279E+001, +0.00000000000E+000
+2.16800000000E+004, +8.54181507558E+001, +0.00000000000E+000
+2.16875000000E+004, +8.54209889351E+001, +0.00000000000E+000
+2.16950000000E+004, +8.54244736392E+001, +0.00000000000E+000
+2.17025000000E+004, +8.54331111110E+001, +0.00000000000E+000
+2.17100000000E+004, +8.54379356824E+001, +0.00000000000E+000
+2.17175000000E+004, +8.54444996876E+001, +0.00000000000E+000
+2.17250000000E+004, +8.54529942287E+001, +0.00000000000E+000
+2.17325000000E+004, +8.54616720042E+001, +0.00000000000E+000
+2.17400000000E+004, +8.54662328959E+001, +0.00000000000E+000
+2.17475000000E+004, +8.54727292503E+001, +0.00000000000E+000
+2.17550000000E+004, +8.54763021045E+001, +0.00000000000E+000
+2.17625000000E+004, +8.54838225815E+001, +0.00000000000E+000
+2.17700000000E+004, +8.54868644770E+001, +0.00000000000E+000
+2.17775000000E+004, +8.54955555923E+001, +0.00000000000E+000
+2.17850000000E+004, +8.55002699820E+001, +0.00000000000E+000
+2.17925000000E+004, +8.55054678594E+001, +0.00000000000E+000
+2.18000000000E+004, +8.55125883078E+001, +0.00000000000E+000
+2.18075000000E+004, +8.55172511530E+001, +0.00000000000E+000
+2.18150000000E+004, +8.55208734398E+001, +0.00000000000E+000
+2.18225000000E+004, +8.55328534232E+001, +0.00000000000E+000
+2.18300000000E+004, +8.55327266150E+001, +0.00000000000E+000
+2.18375000000E+004, +8.55420039192E+001, +0.00000000000E+000
+2.18450000000E+004, +8.55518173936E+001, +0.00000000000E+000
+2.18525000000E+004, +8.55519564075E+001, +0.00000000000E+000
+2.18600000000E+004, +8.55583195287E+001, +0.00000000000E+000
+2.18675000000E+004, +8.55709958954E+001, +0.00000000000E+000
+2.18750000000E+004, +8.55724361898E+001, +0.00000000000E+000
+2.18825000000E+004, +8.55766257826E+001, +0.00000000000E+000
+2.18900000000E+004, +8.55843851395E+001, +0.00000000000E+000
+2.18975000000E+004, +8.55901803989E+001, +0.00000000000E+000
+2.19050000000E+004, +8.55930412910E+001, +0.00000000000E+000
+2.19125000000E+004, +8.56027695970E+001, +0.00000000000E+000
+2.19200000000E+004, +8.56143750049E+001, +0.00000000000E+000
+2.19275000000E+004, +8.56141314352E+001, +0.00000000000E+000
+2.19350000000E+004, +8.56205272124E+001, +0.00000000000E+000
+2.19425000000E+004, +8.56251649913E+001, +0.00000000000E+000
+2.19500000000E+004, +8.56336218499E+001, +0.00000000000E+000
+2.19575000000E+004, +8.56344879510E+001, +0.00000000000E+000
+2.19650000000E+004, +8.56466485815E+001, +0.00000000000E+000
+2.19725000000E+004, +8.56459337925E+001, +0.00000000000E+000
+2.19800000000E+004, +8.56537922385E+001, +0.00000000000E+000
+2.19875000000E+004, +8.56570528338E+001, +0.00000000000E+000
+2.19950000000E+004, +8.56643307256E+001, +0.00000000000E+000
+2.20025000000E+004, +8.56718523426E+001, +0.00000000000E+000
+2.20100000000E+004, +8.56765662088E+001, +0.00000000000E+000
+2.20175000000E+004, +8.56812332186E+001, +0.00000000000E+000
+2.20250000000E+004, +8.56825257745E+001, +0.00000000000E+000
+2.20325000000E+004, +8.56960924226E+001, +0.00000000000E+000
+2.20400000000E+004, +8.56963325272E+001, +0.00000000000E+000
+2.20475000000E+004, +8.56976984425E+001, +0.00000000000E+000
+2.20550000000E+004, +8.57070072354E+001, +0.00000000000E+000
+2.20625000000E+004, +8.57117834388E+001, +0.00000000000E+000
+2.20700000000E+004, +8.57163403502E+001, +0.00000000000E+000
+2.20775000000E+004, +8.57203783484E+001, +0.00000000000E+000
+2.20850000000E+004, +8.57270873250E+001, +0.00000000000E+000
+2.20925000000E+004, +8.57276129146E+001, +0.00000000000E+000
+2.21000000000E+004, +8.57291396308E+001, +0.00000000000E+000
+2.21075000000E+004, +8.57316699790E+001, +0.00000000000E+000
+2.21150000000E+004, +8.57362069601E+001, +0.00000000000E+000
+2.21225000000E+004, +8.57355590449E+001, +0.00000000000E+000
+2.21300000000E+004, +8.57350637167E+001, +0.00000000000E+000
+2.21375000000E+004, +8.57326344866E+001, +0.00000000000E+000
+2.21450000000E+004, +8.57285511924E+001, +0.00000000000E+000
+2.21525000000E+004, +8.57216049494E+001, +0.00000000000E+000
+2.21600000000E+004, +8.57033220467E+001, +0.00000000000E+000
+2.21675000000E+004, +8.56758126630E+001, +0.00000000000E+000
+2.21750000000E+004, +8.56359437201E+001, +0.00000000000E+000
+2.21825000000E+004, +8.55698377958E+001, +0.00000000000E+000
+2.21900000000E+004, +8.54778331999E+001, +0.00000000000E+000
+2.21975000000E+004, +8.53659181635E+001, +0.00000000000E+000
+2.22050000000E+004, +8.52694978889E+001, +0.00000000000E+000
+2.22125000000E+004, +8.52539261468E+001, +0.00000000000E+000
+2.22200000000E+004, +8.53839699045E+001, +0.00000000000E+000
+2.22275000000E+004, +8.55851727910E+001, +0.00000000000E+000
+2.22350000000E+004, +8.57096958980E+001, +0.00000000000E+000
+2.22425000000E+004, +8.57465574136E+001, +0.00000000000E+000
+2.22500000000E+004, +8.57717219506E+001, +0.00000000000E+000
+2.22575000000E+004, +8.57948572411E+001, +0.00000000000E+000
+2.22650000000E+004, +8.58127744701E+001, +0.00000000000E+000
+2.22725000000E+004, +8.58277513972E+001, +0.00000000000E+000
+2.22800000000E+004, +8.58357770006E+001, +0.00000000000E+000
+2.22875000000E+004, +8.58464818816E+001, +0.00000000000E+000
+2.22950000000E+004, +8.58576999321E+001, +0.00000000000E+000
+2.23025000000E+004, +8.58685917817E+001, +0.00000000000E+000
+2.23100000000E+004, +8.58766708090E+001, +0.00000000000E+000
+2.23175000000E+004, +8.58810254082E+001, +0.00000000000E+000
+2.23250000000E+004, +8.58875239909E+001, +0.00000000000E+000
+2.23325000000E+004, +8.58961252156E+001, +0.00000000000E+000
+2.23400000000E+004, +8.58985944647E+001, +0.00000000000E+000
+2.23475000000E+004, +8.59045868251E+001, +0.00000000000E+000
+2.23550000000E+004, +8.59069524472E+001, +0.00000000000E+000
+2.23625000000E+004, +8.59150452973E+001, +0.00000000000E+000
+2.23700000000E+004, +8.59196184846E+001, +0.00000000000E+000
+2.23775000000E+004, +8.59264603135E+001, +0.00000000000E+000
+2.23850000000E+004, +8.59343046514E+001, +0.00000000000E+000
+2.23925000000E+004, +8.59389143724E+001, +0.00000000000E+000
+2.24000000000E+004, +8.59453468025E+001, +0.00000000000E+000
